(0)r[Mpc/h] (1)n_pair (2)v12_tot[km/s] (3)error[km/s] (4)v12_los[km/s] (5)error[km/s] (6)v12_per[km/s] (7)error[km/s] (8)d12_tot[km/s] (9)error[km/s] (10)d12_los[km/s] (11)error[km/s] (12)d12_per[km/s] (13)error[km/s]
0.521847 796391 1314.14 1.02568 -63.5426 1.08265 1004.99 0.880384 1601.49 1.38872 968.253 1.20576 1275.64 1.26711
0.568447 886474 1319.23 0.975499 -69.5818 1.0303 1008.46 0.837049 1607.47 1.32277 972.547 1.14518 1279.88 1.20619
0.619208 983730 1324.85 0.928502 -76.6137 0.982837 1011.74 0.796178 1613.48 1.2535 977.815 1.08807 1283.43 1.14342
0.674502 1084690 1329.46 0.887012 -84.7672 0.940036 1014.11 0.760156 1618.92 1.1985 982.696 1.04173 1286.54 1.09088
0.734734 1196376 1333.55 0.848901 -94.0633 0.901591 1015.23 0.724777 1624.96 1.14819 990.627 1.00526 1288.08 1.03981
0.800344 1312248 1335.4 0.812008 -105.221 0.863844 1014.75 0.692072 1627.43 1.0988 995.141 0.963929 1287.73 0.993024
0.871813 1431833 1334.77 0.778705 -116.216 0.827862 1012.93 0.662796 1627.83 1.05343 997.407 0.926081 1286.48 0.951403
0.949664 1560873 1330.49 0.745728 -128.879 0.792277 1007.77 0.633419 1624.26 1.00836 998.185 0.887833 1281.35 0.909129
1.03447 1694640 1326.42 0.716886 -143.304 0.760827 1002.26 0.606962 1621.83 0.966818 1000.75 0.854499 1276.26 0.870213
1.12684 1834278 1317.6 0.687127 -158.396 0.728036 993.599 0.580235 1613.11 0.92598 998.661 0.820824 1266.8 0.831743
1.22747 1979857 1305.48 0.658947 -175.696 0.696862 981.212 0.554547 1601.23 0.88632 996.153 0.784811 1253.65 0.795169
1.33708 2134749 1289.59 0.63259 -194.245 0.665613 966.32 0.530167 1586.61 0.8536 991.722 0.758435 1238.47 0.763312
1.45648 2297903 1269.84 0.607534 -213.837 0.63441 948.546 0.50685 1568.64 0.821958 985.179 0.731089 1220.68 0.73326
1.58654 2477843 1246.43 0.581462 -234.34 0.603607 926.6 0.481745 1546.4 0.792309 978.62 0.706121 1197.35 0.702506
1.72821 2679932 1219.06 0.555437 -255.332 0.570326 902.824 0.457488 1520.82 0.761427 967.936 0.67837 1173.03 0.672974
1.88254 2920031 1187.8 0.526751 -278.648 0.534309 876.088 0.430941 1490.33 0.728151 954.606 0.648316 1144.47 0.641494
2.05064 3198354 1152.4 0.496171 -297.773 0.497524 845.964 0.402986 1454.45 0.690161 938.275 0.613913 1111.33 0.604961
2.23376 3530593 1113.76 0.464053 -315.009 0.459396 814.341 0.373779 1414.48 0.653825 918.881 0.584553 1075.37 0.569237
2.43323 3940837 1073.36 0.428666 -329.263 0.419533 782.032 0.342634 1369.76 0.609454 895.563 0.547881 1036.45 0.525114
2.65051 4448099 1032.3 0.392367 -339.09 0.380087 749.558 0.311286 1323.04 0.564481 870.391 0.507644 996.42 0.48295
2.8872 5077673 994.2 0.356224 -344.948 0.343132 719.563 0.280026 1277.8 0.518469 846.659 0.472021 957.044 0.436105
3.14502 5879938 959.838 0.32067 -345.1 0.307236 694.119 0.250848 1235.28 0.471952 821.05 0.432979 922.928 0.393253
3.42586 6870637 928.222 0.287087 -341.329 0.274401 670.72 0.223813 1194.93 0.425783 796.138 0.39292 891.083 0.351774
3.73178 8101481 899.832 0.255437 -335.016 0.244219 650.337 0.198723 1156.85 0.379801 771.642 0.352513 861.9 0.311572
4.06502 9638526 875.014 0.226492 -325.266 0.217076 633.084 0.176221 1122.54 0.337635 748.32 0.315568 836.725 0.275692
4.42802 11540135 853.773 0.200701 -314.391 0.193047 618.537 0.156398 1092.6 0.298723 727.262 0.280906 815.392 0.242582
4.82343 13917954 837.246 0.178484 -304.151 0.172286 607.581 0.139172 1069.75 0.267381 711.075 0.253162 799.206 0.215327
5.25415 16859800 822.611 0.158994 -293.218 0.153711 598.212 0.124351 1050.19 0.241569 695.935 0.227885 786.489 0.194752
5.72334 20521302 810.489 0.142151 -283.31 0.137525 590.428 0.111379 1035.16 0.220608 684.388 0.20832 776.646 0.177417
6.23442 25098842 799.402 0.126595 -272.811 0.122829 583.365 0.0993788 1020.43 0.19952 673.119 0.189006 766.939 0.159494
6.79114 30776354 788.141 0.112098 -261.946 0.109215 576.317 0.0883165 1003.94 0.176711 660.084 0.167504 756.433 0.141642
7.39758 37860383 777.113 0.0985734 -251.116 0.096695 569.371 0.0780347 985.79 0.153191 645.795 0.144899 744.803 0.123541
8.05816 46783437 767.353 0.086575 -240.49 0.0855293 563.414 0.0688829 969.27 0.132254 632.51 0.125118 734.449 0.107376
8.77774 57957277 758.771 0.0760067 -230.163 0.0756259 558.226 0.0608343 954.23 0.114195 620.04 0.107465 725.331 0.0937972
9.56157 72070726 751.713 0.066798 -220.75 0.0668984 554.05 0.0537742 941.621 0.0993431 609.323 0.0926587 717.897 0.0826734
10.4154 89919807 745.927 0.0587202 -211.559 0.0592243 550.708 0.0475167 930.837 0.0869735 600.127 0.0805815 711.55 0.0730576
11.3455 112442663 740.72 0.0515393 -202.108 0.0524061 547.779 0.0419232 920.515 0.0759173 591.321 0.0700443 705.469 0.0642472
12.3586 140940866 736.312 0.0451853 -192.967 0.0463689 545.386 0.0369283 910.997 0.0663217 583.326 0.0611988 699.748 0.0563315
13.4622 177177023 733.338 0.0396542 -184.225 0.0410502 543.945 0.0325751 903.542 0.0582297 576.631 0.0534639 695.618 0.0497815
14.6643 223432836 731.644 0.034787 -175.884 0.0363515 543.305 0.0287219 897.601 0.0510152 571.127 0.0465198 692.46 0.0439962
15.9738 282234689 730.246 0.0304387 -167.244 0.0321606 542.904 0.0252626 891.49 0.0445697 565.586 0.0404544 689.106 0.0386497
17.4003 357014768 729.668 0.026617 -158.281 0.0284728 543.005 0.0222036 886.198 0.0387069 560.789 0.0351084 686.195 0.0336954
18.9541 452673544 729.977 0.0232486 -149.412 0.0251818 543.899 0.0195116 881.78 0.0334414 556.215 0.0302626 684.222 0.029317
20.6466 575107375 731.581 0.0203354 -140.78 0.0222943 545.72 0.0171705 879.224 0.0289533 552.872 0.0260681 683.642 0.0255929
22.4903 732012180 734.36 0.0178413 -132.551 0.0197788 548.279 0.015138 878.801 0.0254364 551.302 0.0227965 684.367 0.0225969
24.4987 932785188 737.643 0.015647 -124.309 0.0175413 551.246 0.0133463 878.914 0.0222231 549.97 0.0198387 685.582 0.0198678
26.6864 1190133362 741.647 0.013717 -116.223 0.0155568 554.787 0.0117619 879.756 0.0193556 549.123 0.0172184 687.339 0.017412
29.0694 1520567724 746.23 0.0120215 -108.498 0.0137992 558.703 0.0103581 881.252 0.0168175 548.921 0.0149361 689.413 0.0152004
31.6652 1944255143 751.268 0.0105503 -100.955 0.0122457 562.949 0.00913254 883.637 0.0146984 549.314 0.0130137 692.148 0.0133521
34.4929 2487713396 757.015 0.00927413 -93.6676 0.0108745 567.748 0.00806326 887.152 0.0128793 550.417 0.0113612 695.758 0.0117628
